,Sample 1 Rack 1 Tube 1,,Sample 2 Rack 1 Tube 2,,Sample 3 Rack 1 Tube 3
wavelength (nm),Abs,Wavelength (nm),Abs,Wavelength (nm),Abs
900,0.000786065,900,-0.018421577,900,-0.017172886
899.2000122,-0.015743483,899.2000122,-0.029116536,899.2000122,-0.006853464
898.4000244,0.017160062,898.4000244,-0.011125723,898.4000244,0.02478254
897.5999756,-0.013327713,897.5999756,-0.005844481,897.5999756,-0.012255721
896.7999878,-0.039069511,896.7999878,-0.048600066,896.7999878,-0.016322222
896,-0.013070425,896,-0.015071671,896,-0.008515595
895.2000122,-0.014449601,895.2000122,0.006245679,895.2000122,0.019164123
894.4000244,0.0027286,894.4000244,-0.030311171,894.4000244,-0.02664832
893.5999756,0.012485614,893.5999756,0.011590389,893.5999756,0.01856805
892.7999878,-0.008172734,892.7999878,-0.006777831,892.7999878,-4.71E-06
892,-0.018342622,892,-0.004794236,892,-0.029831275
891.2000122,-0.00411372,891.2000122,-0.007988418,891.2000122,-0.0266844
890.4000244,-0.015309835,890.4000244,-0.002395444,890.4000244,-0.018009122
889.5999756,0.021556441,889.5999756,0.01852723,889.5999756,-0.001917483
888.7999878,-0.007164166,888.7999878,-0.010076653,888.7999878,-0.007803923
888,-0.006163664,888,-0.009313421,888,0.006737536
887.2000122,-0.016843617,887.2000122,-0.006885925,887.2000122,-0.012963307
886.4000244,-0.013330877,886.4000244,-0.000658247,886.4000244,-0.011916154
885.5999756,-0.017038053,885.5999756,-0.023973897,885.5999756,-0.019888844
884.7999878,0.014563003,884.7999878,0.006487163,884.7999878,-0.002266553
884,-0.000643204,884,-0.002211338,884,-0.013792986
883.2000122,-0.00046125,883.2000122,-0.008430501,883.2000122,-0.015060971
882.4000244,-0.013422645,882.4000244,-0.005984622,882.4000244,-0.0166901
881.5999756,-0.007333866,881.5999756,-0.005527415,881.5999756,-0.016993996
880.7999878,-0.003212086,880.7999878,-0.016549684,880.7999878,-0.011028673
880,-0.005377667,880,-0.018590804,880,-0.013461244
879.2000122,-0.004188178,879.2000122,-0.007320019,879.2000122,-0.009111643
878.4000244,-0.001849079,878.4000244,-0.003562736,878.4000244,-0.01323472
877.5999756,-0.006252571,877.5999756,-0.007582059,877.5999756,-0.013211267
876.7999878,-0.006057483,876.7999878,-0.010043317,876.7999878,-0.01919286
876,-0.008016576,876,-0.004310246,876,-0.018263603
875.2000122,-0.012480343,875.2000122,-0.007287183,875.2000122,-0.007930927
874.4000244,-0.010509846,874.4000244,-0.01682768,874.4000244,-0.019353814
873.5999756,-0.0025349,873.5999756,-0.004346896,873.5999756,-0.006740876
872.7999878,-0.00353023,872.7999878,-0.009756031,872.7999878,-0.012072376
872,-0.005794165,872,-0.013402817,872,-0.013480116
871.2000122,-0.01150322,871.2000122,-0.012396274,871.2000122,-0.016678391
870.4000244,-0.004947512,870.4000244,-0.017945293,870.4000244,-0.012997274
869.5999756,-0.007949837,869.5999756,-0.004796182,869.5999756,-0.013238486
868.7999878,-0.000604948,868.7999878,-0.005794522,868.7999878,-0.005523223
868,-0.002430711,868,-0.003987184,868,-0.005198249
867.2000122,-0.006407119,867.2000122,-0.011009997,867.2000122,-0.012499911
866.4000244,0.000501157,866.4000244,-0.00230971,866.4000244,-0.014630093
865.5999756,-0.002263359,865.5999756,-0.006350745,865.5999756,-0.00366999
864.7999878,-0.002381388,864.7999878,-0.006582775,864.7999878,-0.011819784
864,-0.003781119,864,-0.005536769,864,-0.008121924
863.2000122,-0.000958276,863.2000122,-0.005544845,863.2000122,-0.005902147
862.4000244,-0.00564318,862.4000244,-0.006647787,862.4000244,-0.009882922
861.5999756,-0.002318258,861.5999756,-0.008565902,861.5999756,-0.012300866
860.7999878,-0.006240987,860.7999878,-0.010143673,860.7999878,-0.014861295
860,-0.006124207,860,-0.009137447,860,-0.011452496
859.2000122,-0.004305428,859.2000122,-0.007702618,859.2000122,-0.007289016
858.4000244,-0.009252862,858.4000244,-0.012983054,858.4000244,-0.013484382
857.5999756,-0.004932924,857.5999756,-0.009241154,857.5999756,-0.009821785
856.7999878,-0.006486336,856.7999878,-0.010881011,856.7999878,-0.011256855
856,-0.002061267,856,0.001496273,856,-0.006390234
855.2000122,-0.003936395,855.2000122,-0.006173924,855.2000122,-0.012244246
854.4000244,0.000246427,854.4000244,-0.005116238,854.4000244,-0.008037668
853.5999756,-0.003744627,853.5999756,-0.009007753,853.5999756,-0.00977385
852.7999878,-0.003993955,852.7999878,-0.011340791,852.7999878,-0.011664176
852,-0.003195641,852,-0.007320681,852,-0.009509332
851.2000122,-0.00574001,851.2000122,-0.008641123,851.2000122,-0.01194839
850.4000244,-0.004760338,850.4000244,-0.005363349,850.4000244,-0.00885783
849.5999756,-0.004719779,849.5999756,-0.004689307,849.5999756,-0.003898018
848.7999878,-0.002963748,848.7999878,-0.008411815,848.7999878,-0.009370071
848,-0.00682202,848,-0.005464434,848,-0.011265481
847.2000122,-0.000928778,847.2000122,-0.005949284,847.2000122,-0.007890308
846.4000244,-0.003152007,846.4000244,-0.010353364,846.4000244,-0.012423544
845.5999756,-0.005260348,845.5999756,-0.006008978,845.5999756,-0.009287932
844.7999878,-0.002062452,844.7999878,-0.007399376,844.7999878,-0.006321714
844,-0.002617503,844,-0.003646375,844,-0.006841131
843.2000122,-0.006665733,843.2000122,-0.010676677,843.2000122,-0.010237938
842.4000244,-0.005614561,842.4000244,-0.010027735,842.4000244,-0.011655659
841.5999756,-0.004248831,841.5999756,-0.01023814,841.5999756,-0.011325861
840.7999878,-0.005457788,840.7999878,-0.014152288,840.7999878,-0.012393104
840,-0.001033122,840,-0.004739137,840,-0.004419418
839.2000122,-0.005364474,839.2000122,-0.009122796,839.2000122,-0.007968798
838.4000244,-0.005465559,838.4000244,-0.010137198,838.4000244,-0.012960442
837.5999756,-0.006227616,837.5999756,-0.009112657,837.5999756,-0.013430475
836.7999878,-0.005170163,836.7999878,-0.006207814,836.7999878,-0.009127663
836,-0.004952375,836,-0.007411235,836,-0.010274849
835.2000122,-0.007776616,835.2000122,-0.012567764,835.2000122,-0.01292215
834.4000244,-0.000809166,834.4000244,-0.006818146,834.4000244,-0.007408995
833.5999756,-0.002515856,833.5999756,-0.004550029,833.5999756,-0.00972343
832.7999878,-0.004284,832.7999878,-0.008269611,832.7999878,-0.012474859
832,-0.005004068,832,-0.0073049,832,-0.007348679
831.2000122,-0.005548577,831.2000122,-0.010212502,831.2000122,-0.011261193
830.4000244,-0.002871697,830.4000244,-0.007659485,830.4000244,-0.009780127
829.5999756,-0.004913216,829.5999756,-0.008343411,829.5999756,-0.011582622
828.7999878,-0.00675627,828.7999878,-0.010861824,828.7999878,-0.008452081
828,-0.002677039,828,-0.006851833,828,-0.008700752
827.2000122,-0.006021437,827.2000122,-0.009973044,827.2000122,-0.011890212
826.4000244,-0.005263928,826.4000244,-0.005994834,826.4000244,-0.010930792
825.5999756,-0.006634377,825.5999756,-0.006953286,825.5999756,-0.008317407
824.7999878,-0.00638202,824.7999878,-0.009030216,824.7999878,-0.013514344
824,-0.006817739,824,-0.011715834,824,-0.01299632
823.2000122,-0.003615519,823.2000122,-0.006357072,823.2000122,-0.009136332
822.4000244,-0.003965535,822.4000244,-0.008198644,822.4000244,-0.010521013
821.5999756,-0.006323755,821.5999756,-0.007842058,821.5999756,-0.011000558
820.7999878,-0.006635295,820.7999878,-0.010155761,820.7999878,-0.012401759
820,-0.003872413,820,-0.009673865,820,-0.012695847
819.2000122,-0.003458844,819.2000122,-0.013045507,819.2000122,-0.013100466
818.4000244,-0.006972646,818.4000244,-0.010511968,818.4000244,-0.015153574
817.5999756,-0.005777255,817.5999756,-0.01108207,817.5999756,-0.010795825
816.7999878,-0.006383091,816.7999878,-0.009213786,816.7999878,-0.009633763
816,-0.00339808,816,-0.005142383,816,-0.00664539
815.2000122,-0.004376419,815.2000122,-0.007734202,815.2000122,-0.01158232
814.4000244,-0.005473534,814.4000244,-0.009664953,814.4000244,-0.008915756
813.5999756,-0.006430891,813.5999756,-0.007836821,813.5999756,-0.009416175
812.7999878,-0.006095211,812.7999878,-0.009059118,812.7999878,-0.010501103
812,-0.005271191,812,-0.009268624,812,-0.01222089
811.2000122,-0.003725276,811.2000122,-0.00786987,811.2000122,-0.010391934
810.4000244,-0.005560895,810.4000244,-0.007225883,810.4000244,-0.008422732
809.5999756,-0.003099012,809.5999756,-0.010297955,809.5999756,-0.012036271
808.7999878,-0.003665832,808.7999878,-0.005034519,808.7999878,-0.007512862
808,-0.004538706,808,-0.006642076,808,-0.009629104
807.2000122,-0.005503798,807.2000122,-0.008271693,807.2000122,-0.009700648
806.4000244,-0.001130469,806.4000244,-0.005682426,806.4000244,-0.010693094
805.5999756,-0.001680678,805.5999756,-0.003911871,805.5999756,-0.00480888
804.7999878,-0.006033946,804.7999878,-0.007670167,804.7999878,-0.007627997
804,-0.004519083,804,-0.005383241,804,-0.009919611
803.2000122,-0.009775976,803.2000122,-0.009623179,803.2000122,-0.01353211
802.4000244,-0.005821699,802.4000244,-0.008852047,802.4000244,-0.013059574
801.5999756,-0.006256143,801.5999756,-0.006787515,801.5999756,-0.012605484
800.7999878,-0.003919208,800.7999878,-0.008526408,800.7999878,-0.009353908
800,-0.002850095,800,-0.006598328,800,-0.00985038
799.2000122,-0.004574978,799.2000122,-0.006796384,799.2000122,-0.009271816
798.4000244,-0.005325967,798.4000244,-0.008960591,798.4000244,-0.007911762
797.5999756,-0.003819815,797.5999756,-0.008887352,797.5999756,-0.008684057
796.7999878,-0.004989482,796.7999878,-0.007137175,796.7999878,-0.009871586
796,-0.004902774,796,-0.008732111,796,-0.010371612
795.2000122,-0.001961603,795.2000122,-0.005680382,795.2000122,-0.009071337
794.4000244,-0.003824228,794.4000244,-0.00773288,794.4000244,-0.009697053
793.5999756,-0.004336901,793.5999756,-0.007451746,793.5999756,-0.008969922
792.7999878,-0.003831977,792.7999878,-0.008103072,792.7999878,-0.010946039
792,-0.00374165,792,-0.007056752,792,-0.010411394
791.2000122,-0.003251398,791.2000122,-0.003330987,791.2000122,-0.009379596
790.4000244,-0.005845656,790.4000244,-0.0080737,790.4000244,-0.010917515
789.5999756,-0.006230066,789.5999756,-0.006419974,789.5999756,-0.011089186
788.7999878,-0.006254561,788.7999878,-0.009578059,788.7999878,-0.01120262
788,-0.004154694,788,-0.005111633,788,-0.009627939
787.2000122,-0.004371549,787.2000122,-0.005125243,787.2000122,-0.010620905
786.4000244,-0.002614724,786.4000244,-0.00451647,786.4000244,-0.008297751
785.5999756,-0.002857913,785.5999756,-0.005116903,785.5999756,-0.008890598
784.7999878,-0.004427669,784.7999878,-0.007190035,784.7999878,-0.010616156
784,-0.002903531,784,-0.00606361,784,-0.008623918
783.2000122,-0.004687822,783.2000122,-0.007436733,783.2000122,-0.00889283
782.4000244,-0.002716965,782.4000244,-0.006647787,782.4000244,-0.011031499
781.5999756,-0.004676247,781.5999756,-0.006766872,781.5999756,-0.009807156
780.7999878,-0.005170675,780.7999878,-0.006243946,780.7999878,-0.012517366
780,-0.002313108,780,-0.005219273,780,-0.006877823
779.2000122,-0.002965085,779.2000122,-0.006312785,779.2000122,-0.008635032
778.4000244,-0.005385593,778.4000244,-0.006370184,778.4000244,-0.010015138
777.5999756,-0.005166736,777.5999756,-0.006175047,777.5999756,-0.00995154
776.7999878,-0.007042184,776.7999878,-0.006298038,776.7999878,-0.008895468
776,-0.006730987,776,-0.008246651,776,-0.008278145
775.2000122,-0.003664754,775.2000122,-0.007729676,775.2000122,-0.009616242
774.4000244,-0.004745846,774.4000244,-0.0076721,774.4000244,-0.0108034
773.5999756,-0.003441689,773.5999756,-0.007218958,773.5999756,-0.00866736
772.7999878,-0.003368285,772.7999878,-0.005015226,772.7999878,-0.007580583
772,-0.003055934,772,-0.007192378,772,-0.007948059
771.2000122,-0.002930684,771.2000122,-0.004974742,771.2000122,-0.007506959
770.4000244,-0.002950121,770.4000244,-0.006389519,770.4000244,-0.007959242
769.5999756,-0.005757688,769.5999756,-0.006414108,769.5999756,-0.009881556
768.7999878,-0.005723303,768.7999878,-0.006669811,768.7999878,-0.009031991
768,-0.004792085,768,-0.006330388,768,-0.009535213
767.2000122,-0.005336552,767.2000122,-0.006674655,767.2000122,-0.009843902
766.4000244,-0.003720759,766.4000244,-0.007576666,766.4000244,-0.009373313
765.5999756,-0.005298043,765.5999756,-0.007098367,765.5999756,-0.01225557
764.7999878,-0.00637901,764.7999878,-0.006981358,764.7999878,-0.011226232
764,-0.006779921,764,-0.009023015,764,-0.01041008
763.2000122,-0.005547299,763.2000122,-0.006790828,763.2000122,-0.009309012
762.4000244,-0.002626663,762.4000244,-0.006509543,762.4000244,-0.007957818
761.5999756,-0.004414549,761.5999756,-0.008728661,761.5999756,-0.010183273
760.7999878,-0.004375548,760.7999878,-0.008612548,760.7999878,-0.011060217
760,-0.004644849,760,-0.007448082,760,-0.010462037
759.2000122,-0.005145964,759.2000122,-0.006643453,759.2000122,-0.008363116
758.4000244,-0.002766508,758.4000244,-0.005573724,758.4000244,-0.008830285
757.5999756,-0.004163052,757.5999756,-0.006532493,757.5999756,-0.007575139
756.7999878,-0.005075559,756.7999878,-0.007760444,756.7999878,-0.008199914
756,-0.004093616,756,-0.007237085,756,-0.009643737
755.2000122,-0.004824343,755.2000122,-0.005429872,755.2000122,-0.007859091
754.4000244,-0.003634515,754.4000244,-0.005663416,754.4000244,-0.008576561
753.5999756,-0.002121085,753.5999756,-0.005169498,753.5999756,-0.007716096
752.7999878,-0.00135173,752.7999878,-0.004915162,752.7999878,-0.006971322
752,-0.004787682,752,-0.007476733,752,-0.007485893
751.2000122,-0.004553461,751.2000122,-0.005590182,751.2000122,-0.008750277
750.4000244,-0.004364374,750.4000244,-0.006983039,750.4000244,-0.008991373
749.5999756,-0.003261469,749.5999756,-0.006016382,749.5999756,-0.00878356
748.7999878,-0.003284284,748.7999878,-0.006533105,748.7999878,-0.008041225
748,-0.003926852,748,-0.006153456,748,-0.008092858
747.2000122,-0.0039819,747.2000122,-0.00728087,747.2000122,-0.008747334
746.4000244,-0.004710561,746.4000244,-0.007818008,746.4000244,-0.010414376
745.5999756,-0.004120848,745.5999756,-0.00832274,745.5999756,-0.010014126
744.7999878,-0.004900931,744.7999878,-0.006685055,744.7999878,-0.008200879
744,-0.005293133,744,-0.00679302,744,-0.008731147
743.2000122,-0.003954762,743.2000122,-0.007268906,743.2000122,-0.007642851
742.4000244,-0.004577847,742.4000244,-0.007951719,742.4000244,-0.008041073
741.5999756,-0.002469682,741.5999756,-0.006606588,741.5999756,-0.007972153
740.7999878,-0.004026528,740.7999878,-0.006344011,740.7999878,-0.008155256
740,-0.004330237,740,-0.006156927,740,-0.008694307
739.2000122,-0.003041591,739.2000122,-0.00536969,739.2000122,-0.009508318
738.4000244,-0.003693964,738.4000244,-0.006852802,738.4000244,-0.009446369
737.5999756,-0.00243622,737.5999756,-0.005705573,737.5999756,-0.007861125
736.7999878,-0.003505683,736.7999878,-0.006708914,736.7999878,-0.007588876
736,-0.003317064,736,-0.008091079,736,-0.008749363
735.2000122,-0.004801712,735.2000122,-0.005931513,735.2000122,-0.008827241
734.4000244,-0.004087821,734.4000244,-0.007625963,734.4000244,-0.009437705
733.5999756,-0.003111041,733.5999756,-0.005911748,733.5999756,-0.00801561
732.7999878,-0.004465589,732.7999878,-0.007146648,732.7999878,-0.008596662
732,-0.004038736,732,-0.006495466,732,-0.009303135
731.2000122,-0.002498663,731.2000122,-0.005155429,731.2000122,-0.007377235
730.4000244,-0.003981952,730.4000244,-0.006960623,730.4000244,-0.009377114
729.5999756,-0.003500034,729.5999756,-0.007114919,729.5999756,-0.007582516
728.7999878,-0.005123708,728.7999878,-0.007219417,728.7999878,-0.007703432
728,-0.003731179,728,-0.006081223,728,-0.008739012
727.2000122,-0.003383285,727.2000122,-0.005508706,727.2000122,-0.007625911
726.4000244,-0.003760949,726.4000244,-0.005740726,726.4000244,-0.008006665
725.5999756,-0.003706694,725.5999756,-0.00551484,725.5999756,-0.007715893
724.7999878,-0.004612784,724.7999878,-0.005856945,724.7999878,-0.00762876
724,-0.004248063,724,-0.006448694,724,-0.009070627
723.2000122,-0.004136797,723.2000122,-0.006801786,723.2000122,-0.008025724
722.4000244,-0.00525554,722.4000244,-0.005891421,722.4000244,-0.008432837
721.5999756,-0.003822792,721.5999756,-0.006744036,721.5999756,-0.007742695
720.7999878,-0.004574722,720.7999878,-0.00640212,720.7999878,-0.007441517
720,-0.00349269,720,-0.006790675,720,-0.006891378
719.2000122,-0.004653967,719.2000122,-0.006925364,719.2000122,-0.007431491
718.4000244,-0.00363164,718.4000244,-0.006689491,718.4000244,-0.008070599
717.5999756,-0.002019373,717.5999756,-0.005945659,717.5999756,-0.007109368
716.7999878,-0.004112899,716.7999878,-0.006860395,716.7999878,-0.006588283
716,-0.003544095,716,-0.007729625,716,-0.008050068
715.2000122,-0.002123867,715.2000122,-0.005319983,715.2000122,-0.0068421
714.4000244,-0.003378148,714.4000244,-0.006246396,714.4000244,-0.006670271
713.5999756,-0.004012371,713.5999756,-0.006210519,713.5999756,-0.007502227
712.7999878,-0.002744953,712.7999878,-0.005585531,712.7999878,-0.006974022
712,-0.002430608,712,-0.004799356,712,-0.006255582
711.2000122,-0.004160283,711.2000122,-0.005775978,711.2000122,-0.00701814
710.4000244,-0.003051924,710.4000244,-0.005362377,710.4000244,-0.006910129
709.5999756,-0.003470246,709.5999756,-0.006508013,709.5999756,-0.007261982
708.7999878,-0.004142438,708.7999878,-0.006996184,708.7999878,-0.006438798
708,-0.002353377,708,-0.004645925,708,-0.005447256
707.2000122,-0.004419828,707.2000122,-0.007001023,707.2000122,-0.006974685
706.4000244,-0.002515084,706.4000244,-0.005556704,706.4000244,-0.006787923
705.5999756,-0.00409536,705.5999756,-0.006205823,705.5999756,-0.006104451
704.7999878,-0.002430145,704.7999878,-0.004626512,704.7999878,-0.005542239
704,-0.003040871,704,-0.005760447,704,-0.005431304
703.2000122,-0.00377845,703.2000122,-0.004984671,703.2000122,-0.006164175
702.4000244,-0.002989714,702.4000244,-0.003796105,702.4000244,-0.005732296
701.5999756,-0.00312384,701.5999756,-0.005211038,701.5999756,-0.006480114
700.7999878,-0.003257718,700.7999878,-0.004609966,700.7999878,-0.004792341
700,-0.002645548,700,-0.005142485,700,-0.005745426
699.2000122,-0.001333047,699.2000122,-0.004527383,699.2000122,-0.004433767
698.4000244,-0.003536444,698.4000244,-0.005363911,698.4000244,-0.007127397
697.5999756,-0.003706386,697.5999756,-0.005694894,697.5999756,-0.005835338
696.7999878,-0.003731692,696.7999878,-0.0062466,696.7999878,-0.005302185
696,-0.004183717,696,-0.00551852,696,-0.005856996
695.2000122,-0.004276311,695.2000122,-0.005506508,695.2000122,-0.006762234
694.4000244,-0.00348853,694.4000244,-0.005643742,694.4000244,-0.006479808
693.5999756,-0.002882034,693.5999756,-0.005904853,693.5999756,-0.006584407
692.7999878,-0.003984516,692.7999878,-0.005999736,692.7999878,-0.004949611
692,-0.002680332,692,-0.004460107,692,-0.004713993
691.2000122,-0.004820144,691.2000122,-0.006332327,691.2000122,-0.006980798
690.4000244,-0.004536298,690.4000244,-0.006646767,690.4000244,-0.006008162
689.5999756,-0.003065033,689.5999756,-0.005824049,689.5999756,-0.004670203
688.7999878,-0.002515701,688.7999878,-0.004971006,688.7999878,-0.005410136
688,-0.002300079,688,-0.004651406,688,-0.005181828
687.2000122,-0.003716293,687.2000122,-0.00504588,687.2000122,-0.005760293
686.4000244,-0.00377881,686.4000244,-0.006362786,686.4000244,-0.005902913
685.5999756,-0.004115873,685.5999756,-0.006472667,685.5999756,-0.005602755
684.7999878,-0.003279813,684.7999878,-0.005458503,684.7999878,-0.004550746
684,-0.003046217,684,-0.006140694,684,-0.005160034
683.2000122,-0.003026167,683.2000122,-0.004792137,683.2000122,-0.005165917
682.4000244,-0.002613026,682.4000244,-0.003709466,682.4000244,-0.004464975
681.5999756,-0.003962765,681.5999756,-0.004855983,681.5999756,-0.00496645
680.7999878,-0.003062103,680.7999878,-0.006073923,680.7999878,-0.006605466
680,-0.003057219,680,-0.005565496,680,-0.004930672
679.2000122,-0.003024573,679.2000122,-0.004330545,679.2000122,-0.003757664
678.4000244,-0.003299647,678.4000244,-0.005505639,678.4000244,-0.005120741
677.5999756,-0.002790171,677.5999756,-0.004876717,677.5999756,-0.004204073
676.7999878,-0.002793669,676.7999878,-0.004343257,676.7999878,-0.004503917
676,-0.004523592,676,-0.005165917,676,-0.004367193
675.2000122,-0.005341718,675.2000122,-0.005142895,675.2000122,-0.003570643
674.4000244,-0.003931573,674.4000244,-0.004149104,674.4000244,-0.004312348
673.5999756,-0.003335817,673.5999756,-0.004226991,673.5999756,-0.003655205
672.7999878,-0.003111298,672.7999878,-0.004230785,672.7999878,-0.00418146
672,-0.001290825,672,-0.003796772,672,-0.002813113
671.2000122,-0.002234208,671.2000122,-0.003297026,671.2000122,-0.004269953
670.4000244,-0.004378879,670.4000244,-0.005696171,670.4000244,-0.004538552
669.5999756,-0.003316499,669.5999756,-0.00551985,669.5999756,-0.00510713
668.7999878,-0.002492898,668.7999878,-0.005120127,668.7999878,-0.00389186
668,-0.004017142,668,-0.00451811,668,-0.004733197
667.2000122,-0.001534034,667.2000122,-0.0027502,667.2000122,-0.002260321
666.4000244,-0.00246577,666.4000244,-0.005291598,666.4000244,-0.004007806
665.5999756,-0.002426078,665.5999756,-0.0042921,665.5999756,-0.003646683
664.7999878,-0.003367052,664.7999878,-0.004119002,664.7999878,-0.004267698
664,-0.002424585,664,-0.004440788,664,-0.003614543
663.2000122,-0.00268769,663.2000122,-0.004051354,663.2000122,-0.002922301
662.4000244,-0.002413928,662.4000244,-0.004278566,662.4000244,-0.003508816
661.5999756,-0.002578185,661.5999756,-0.004030375,661.5999756,-0.002917982
660.7999878,-0.003620397,660.7999878,-0.005980741,660.7999878,-0.00359113
660,-0.00206508,660,-0.004272824,660,-0.002448678
659.2000122,-0.002638035,659.2000122,-0.003675329,659.2000122,-0.002899057
658.4000244,-0.003305863,658.4000244,-0.004806422,658.4000244,-0.00357624
657.5999756,-0.002540202,657.5999756,-0.005234415,657.5999756,-0.003764849
656.7999878,-0.002660522,656.7999878,-0.00381145,656.7999878,-0.00303136
656,-0.003233721,656,-0.003697711,656,-0.003064108
655.2000122,-0.002256561,655.2000122,-0.003745294,655.2000122,-0.002584978
654.4000244,-0.002019167,654.4000244,-0.00330165,654.4000244,-0.003455454
653.5999756,-0.002404248,653.5999756,-0.003667988,653.5999756,-0.002825509
652.7999878,-0.000967058,652.7999878,-0.002378916,652.7999878,-0.002104547
652,-0.002638293,652,-0.002758791,652,-0.002728027
651.2000122,-0.001509528,651.2000122,-0.003532233,651.2000122,-0.002464123
650.4000244,-0.002059463,650.4000244,-0.004144181,650.4000244,-0.002916645
649.5999756,-0.002122116,649.5999756,-0.004501663,649.5999756,-0.002259909
648.7999878,-0.002463402,648.7999878,-0.00450238,648.7999878,-0.002148287
648,-0.002043387,648,-0.002693401,648,-0.002384735
647.2000122,-0.001693467,647.2000122,-0.002932741,647.2000122,-0.001337073
646.4000244,-0.002247908,646.4000244,-0.003064159,646.4000244,-0.001692436
645.5999756,-0.001964798,645.5999756,-0.003906637,645.5999756,-0.002612048
644.7999878,-0.002165596,644.7999878,-0.003977335,644.7999878,-0.002985704
644,-0.002643336,644,-0.004231605,644,-0.002424894
643.2000122,-0.002730445,643.2000122,-0.003980361,643.2000122,-0.002584773
642.4000244,-0.002731371,642.4000244,-0.003201551,642.4000244,-0.003571721
641.5999756,-0.003597241,641.5999756,-0.004462515,641.5999756,-0.003450575
640.7999878,-0.003476718,640.7999878,-0.003858969,640.7999878,-0.002173066
640,-0.002603608,640,-0.004175205,640,-0.001845367
639.2000122,-0.002783381,639.2000122,-0.003263319,639.2000122,-0.001577883
638.4000244,-0.003523914,638.4000244,-0.004353252,638.4000244,-0.00239704
637.5999756,-0.003065444,637.5999756,-0.003631538,637.5999756,-0.002040707
636.7999878,-0.002683059,636.7999878,-0.003202065,636.7999878,-0.002443788
636,-0.002909291,636,-0.003126821,636,-0.001918823
635.2000122,-0.003509792,635.2000122,-0.002981127,635.2000122,-0.002096252
634.4000244,-0.003896068,634.4000244,-0.003366846,634.4000244,-0.00361326
633.5999756,-0.00331655,633.5999756,-0.003512667,633.5999756,-0.004485215
632.7999878,-0.002514672,632.7999878,-0.003740777,632.7999878,-0.003231306
632,-0.003197285,632,-0.004191254,632,-0.003026578
631.2000122,-0.004259957,631.2000122,-0.004514216,631.2000122,-0.004145361
630.4000244,-0.003310076,630.4000244,-0.004174641,630.4000244,-0.003851272
629.5999756,-0.003323846,629.5999756,-0.004397227,629.5999756,-0.003642319
628.7999878,-0.002853438,628.7999878,-0.003918387,628.7999878,-0.003659261
628,-0.002628876,628,-0.004318807,628,-0.002977682
627.2000122,-0.002808998,627.2000122,-0.003731076,627.2000122,-0.002670093
626.4000244,-0.002116809,626.4000244,-0.003175083,626.4000244,-0.002592647
625.5999756,-0.002285557,625.5999756,-0.002855753,625.5999756,-0.002786673
624.7999878,-0.002796498,624.7999878,-0.002042459,624.7999878,-0.002328918
624,-0.002947705,624,-0.003545893,624,-0.002999226
623.2000122,-0.003589847,623.2000122,-0.003289576,623.2000122,-0.00297722
622.4000244,-0.002540511,622.4000244,-0.002678274,622.4000244,-0.001473825
621.5999756,-0.003097316,621.5999756,-0.003438042,621.5999756,-0.001418716
620.7999878,-0.003226372,620.7999878,-0.002766971,620.7999878,-0.002533356
620,-0.002437147,620,-0.002559503,620,-0.001528772
619.2000122,-0.002264956,619.2000122,-0.002609578,619.2000122,-0.001538213
618.4000244,-0.001112344,618.4000244,-0.001382799,618.4000244,-3.15E-05
617.5999756,-0.000998877,617.5999756,-0.000951922,617.5999756,0.000716052
616.7999878,-0.002832916,616.7999878,-0.003486322,616.7999878,-9.13E-05
616,-0.003536239,616,-0.002446259,616,-0.00103369
615.2000122,-0.003369312,615.2000122,-0.000996191,615.2000122,0.000143432
614.4000244,-0.002851587,614.4000244,-0.00184279,614.4000244,-0.000129669
613.5999756,-0.002227615,613.5999756,-0.001845419,613.5999756,0.000657743
612.7999878,-0.001687588,612.7999878,-0.002075643,612.7999878,0.000674516
612,-0.002357908,612,-0.003219486,612,0.000490609
611.2000122,-0.002180329,611.2000122,-0.002574016,611.2000122,0.001385684
610.4000244,-0.000950786,610.4000244,-0.002469888,610.4000244,0.002566552
609.5999756,-0.000262456,609.5999756,3.35E-05,609.5999756,0.003002358
608.7999878,-0.000523513,608.7999878,-0.001029765,608.7999878,0.002015804
608,-0.000761829,608,-0.000610169,608,0.00264262
607.2000122,-0.001921194,607.2000122,-0.001278591,607.2000122,0.002298247
606.4000244,-0.000849006,606.4000244,0.001069552,606.4000244,0.004000119
605.5999756,-0.001214733,605.5999756,-0.000703063,605.5999756,0.002316438
604.7999878,-0.000875512,604.7999878,0.000530339,604.7999878,0.002784557
604,-0.001897278,604,5.46E-05,604,0.0025113
603.2000122,-0.001688671,603.2000122,-0.000287446,603.2000122,0.002620718
602.4000244,-0.001238378,602.4000244,-4.41E-05,602.4000244,0.002310868
601.5999756,-0.000753456,601.5999756,0.000466483,601.5999756,0.004632764
600.7999878,-0.000694638,600.7999878,0.000244018,600.7999878,0.004218322
600,-0.002409139,600,-0.000357338,600,0.00346806
599.2000122,-0.001109917,599.2000122,0.000495896,599.2000122,0.003753826
598.4000244,-0.001054556,598.4000244,-8.03E-05,598.4000244,0.002787006
597.5999756,-0.000876907,597.5999756,0.000369939,597.5999756,0.003719204
596.7999878,-0.000259403,596.7999878,0.000559186,596.7999878,0.003744635
596,-0.001028577,596,-0.000179042,596,0.004403031
595.2000122,-0.000971707,595.2000122,-0.000596779,595.2000122,0.004354395
594.4000244,-0.001135633,594.4000244,-0.00049926,594.4000244,0.003098524
593.5999756,-0.001466034,593.5999756,-0.000280255,593.5999756,0.003625041
592.7999878,-0.001717602,592.7999878,0.000362503,592.7999878,0.00447385
592,-0.000946188,592,0.00041769,592,0.0049271
591.2000122,-0.001137027,591.2000122,0.000148533,591.2000122,0.004507903
590.4000244,-8.89E-05,590.4000244,0.000686858,590.4000244,0.004478191
589.5999756,-0.000454268,589.5999756,0.001777234,589.5999756,0.0060216
588.7999878,-0.00036846,588.7999878,0.001486662,588.7999878,0.006368257
588,-0.001288554,588,0.00219414,588,0.006782601
587.2000122,0.000240029,587.2000122,0.00283703,587.2000122,0.007611134
586.4000244,-0.000284601,586.4000244,0.002762387,586.4000244,0.007184998
585.5999756,0.0005497,585.5999756,0.003484264,585.5999756,0.007879447
584.7999878,0.000438859,584.7999878,0.003512786,584.7999878,0.008762347
584,0.000308049,584,0.003828221,584,0.009563601
583.2000122,0.000689269,583.2000122,0.003812579,583.2000122,0.00970075
582.4000244,0.00032126,582.4000244,0.00373111,582.4000244,0.010159226
581.5999756,-4.26E-05,581.5999756,0.004229117,581.5999756,0.00971965
580.7999878,3.37E-05,580.7999878,0.003244965,580.7999878,0.010092322
580,-9.14E-05,580,0.003021125,580,0.010852162
579.2000122,0.000514918,579.2000122,0.003472417,579.2000122,0.010586382
578.4000244,5.38E-05,578.4000244,0.002525282,578.4000244,0.00945287
577.5999756,0.000946827,577.5999756,0.00300327,577.5999756,0.008720694
576.7999878,0.000854585,576.7999878,0.004228856,576.7999878,0.009315957
576,7.46E-05,576,0.00326909,576,0.008470416
575.2000122,0.000328229,575.2000122,0.003516048,575.2000122,0.008341967
574.4000244,-0.000433219,574.4000244,0.002799381,574.4000244,0.007777868
573.5999756,-1.81E-05,573.5999756,0.002631708,573.5999756,0.007372394
572.7999878,0.000553614,572.7999878,0.003604498,572.7999878,0.008183166
572,0.000169923,572,0.002556032,572,0.00762636
571.2000122,0.000209675,571.2000122,0.001429963,571.2000122,0.006904277
570.4000244,-0.000144523,570.4000244,0.002587983,570.4000244,0.007106709
569.5999756,-0.001983506,569.5999756,0.001539368,569.5999756,0.005793675
568.7999878,-0.001171777,568.7999878,0.001253731,568.7999878,0.004646605
568,-0.001248754,568,0.001698745,568,0.006400253
567.2000122,-0.001421245,567.2000122,0.001279277,567.2000122,0.006414176
566.4000244,-0.00115701,566.4000244,0.001496091,566.4000244,0.006152384
565.5999756,-0.001312917,565.5999756,0.001662676,565.5999756,0.005242175
564.7999878,-0.001135013,564.7999878,0.000911676,564.7999878,0.005219617
564,-0.000273632,564,0.0008259,564,0.007171628
563.2000122,-0.000732679,563.2000122,0.001339514,563.2000122,0.005618418
562.4000244,-0.001239152,562.4000244,0.000955622,562.4000244,0.00591169
561.5999756,-0.001020778,561.5999756,0.000356104,561.5999756,0.006508762
560.7999878,-0.001521497,560.7999878,0.001005669,560.7999878,0.005490311
560,-0.001618374,560,0.001585585,560,0.006651153
559.2000122,-0.001670209,559.2000122,0.002191694,559.2000122,0.006833639
558.4000244,-0.001024083,558.4000244,0.001511572,558.4000244,0.007242585
557.5999756,-0.000387237,557.5999756,0.002052162,557.5999756,0.007807306
556.7999878,-0.000421271,556.7999878,0.001716495,556.7999878,0.007465689
556,-0.000344975,556,0.003336334,556,0.00877941
555.2000122,-0.000352217,555.2000122,0.002934462,555.2000122,0.008584778
554.4000244,-0.000906615,554.4000244,0.003373846,554.4000244,0.008863496
553.5999756,-0.001203581,553.5999756,0.0018084,553.5999756,0.007178997
552.7999878,-0.000527029,552.7999878,0.003269116,552.7999878,0.008863549
552,-0.0008643,552,0.004324745,552,0.009922154
551.2000122,-0.000448269,551.2000122,0.003690903,551.2000122,0.009009145
550.4000244,-0.000851796,550.4000244,0.00295685,550.4000244,0.009403639
549.5999756,-0.00181428,549.5999756,0.003196146,549.5999756,0.010375588
548.7999878,-0.000158497,548.7999878,0.004116837,548.7999878,0.011551973
548,-0.001084251,548,0.004018799,548,0.010708598
547.2000122,-4.93E-05,547.2000122,0.005150065,547.2000122,0.011074472
546.4000244,-1.94E-05,546.4000244,0.005085447,546.4000244,0.010192801
545.5999756,0.000325483,545.5999756,0.005785805,545.5999756,0.011364784
544.7999878,-5.58E-05,544.7999878,0.005455918,544.7999878,0.01130864
544,-0.000583543,544,0.006037848,544,0.011231598
543.2000122,-0.000717742,543.2000122,0.005804221,543.2000122,0.011635561
542.4000244,-0.000418737,542.4000244,0.005840767,542.4000244,0.011882668
541.5999756,-0.000945465,541.5999756,0.005255171,541.5999756,0.011456814
540.7999878,-0.001365407,540.7999878,0.004924272,540.7999878,0.012526217
540,-7.87E-05,540,0.005780244,540,0.012615002
539.2000122,0.000434428,539.2000122,0.006446491,539.2000122,0.013803435
538.4000244,0.000857283,538.4000244,0.006251325,538.4000244,0.013257395
537.5999756,-2.85E-05,537.5999756,0.005305428,537.5999756,0.012599972
536.7999878,0.000742656,536.7999878,0.005806949,536.7999878,0.012334933
536,-0.000291585,536,0.005456888,536,0.01201664
535.2000122,0.001471597,535.2000122,0.005912451,535.2000122,0.013310322
534.4000244,0.001551474,534.4000244,0.007534928,534.4000244,0.013773561
533.5999756,0.001596861,533.5999756,0.006951279,533.5999756,0.014386954
532.7999878,0.000520231,532.7999878,0.006437295,532.7999878,0.013105272
532,0.000218325,532,0.006295735,532,0.012879893
531.2000122,0.000195069,531.2000122,0.0056951,531.2000122,0.014352784
530.4000244,-0.000229548,530.4000244,0.005568937,530.4000244,0.013639554
529.5999756,-0.00056736,529.5999756,0.005858162,529.5999756,0.013607154
528.7999878,5.51E-05,528.7999878,0.005230044,528.7999878,0.013519154
528,0.000520387,528,0.005961786,528,0.014529944
527.2000122,0.000152081,527.2000122,0.006063729,527.2000122,0.015188582
526.4000244,0.000211747,526.4000244,0.006307318,526.4000244,0.015823495
525.5999756,5.07E-05,525.5999756,0.006238405,525.5999756,0.014767644
524.7999878,-0.000147214,524.7999878,0.006789306,524.7999878,0.014934523
524,0.000463036,524,0.005923158,524,0.014891793
523.2000122,0.000665339,523.2000122,0.006605682,523.2000122,0.015702084
522.4000244,9.40E-05,522.4000244,0.007214264,522.4000244,0.016470816
521.5999756,0.001277044,521.5999756,0.007752727,521.5999756,0.017214408
520.7999878,0.000906177,520.7999878,0.007598252,520.7999878,0.017334599
520,0.001264946,520,0.00746898,520,0.016878985
519.2000122,0.000467649,519.2000122,0.007821618,519.2000122,0.01608659
518.4000244,0.001011247,518.4000244,0.007614321,518.4000244,0.016176024
517.5999756,0.000893441,517.5999756,0.007443041,517.5999756,0.017670024
516.7999878,0.000764645,516.7999878,0.007751779,516.7999878,0.017517345
516,0.00067672,516,0.007456867,516,0.018220646
515.2000122,0.001979318,515.2000122,0.008237589,515.2000122,0.018220754
514.4000244,0.001316924,514.4000244,0.008842651,514.4000244,0.018733531
513.5999756,0.000479181,513.5999756,0.008268325,513.5999756,0.019313404
512.7999878,0.000560923,512.7999878,0.007110183,512.7999878,0.017701598
512,0.00124654,512,0.007690119,512,0.018636245
511.1999817,0.001826128,511.1999817,0.007961066,511.1999817,0.019698251
510.3999939,0.001965926,510.3999939,0.00737716,510.3999939,0.01959433
509.6000061,0.002784817,509.6000061,0.009731563,509.6000061,0.021054776
508.7999878,0.002002177,508.7999878,0.009148129,508.7999878,0.019918932
508,0.00129148,508,0.008076427,508,0.020748738
507.1999817,0.00135003,507.1999817,0.008208307,507.1999817,0.02001401
506.3999939,0.002182198,506.3999939,0.009049186,506.3999939,0.02124195
505.6000061,0.002564443,505.6000061,0.010580414,505.6000061,0.022355264
504.7999878,0.001448611,504.7999878,0.009693921,504.7999878,0.022066338
504,0.000781553,504,0.008926749,504,0.022084778
503.1999817,0.00156106,503.1999817,0.009051618,503.1999817,0.022818109
502.3999939,0.00150487,502.3999939,0.008326082,502.3999939,0.020702148
501.6000061,0.002227209,501.6000061,0.00871771,501.6000061,0.021799652
500.7999878,0.001457441,500.7999878,0.00815853,500.7999878,0.021960162
500,0.002540045,500,0.010200036,500,0.022984426
499.1999817,0.004293503,499.1999817,0.011288847,499.1999817,0.024017215
498.3999939,0.003349794,498.3999939,0.01156476,498.3999939,0.024147019
497.6000061,0.002748892,497.6000061,0.012209276,497.6000061,0.023995411
496.7999878,0.001497208,496.7999878,0.010304516,496.7999878,0.023141772
496,0.001103236,496,0.010128383,496,0.02274006
495.1999817,0.001824231,495.1999817,0.010598795,495.1999817,0.022497578
494.3999939,0.000404734,494.3999939,0.010398522,494.3999939,0.022885665
493.6000061,-0.001644679,493.6000061,0.009529889,493.6000061,0.022556085
492.7999878,0.00155098,492.7999878,0.010370975,492.7999878,0.024383526
492,0.00219323,492,0.009127799,492,0.024024766
491.1999817,0.001729983,491.1999817,0.009944323,491.1999817,0.025136935
490.3999939,0.002372524,490.3999939,0.011683317,490.3999939,0.024961593
489.6000061,0.002114639,489.6000061,0.010564765,489.6000061,0.025114197
488.7999878,0.001464947,488.7999878,0.011875538,488.7999878,0.025234481
488,0.001140894,488,0.011295409,488,0.025075473
487.1999817,0.000373384,487.1999817,0.010140174,487.1999817,0.024294274
486.3999939,0.00091951,486.3999939,0.010638294,486.3999939,0.024447383
485.6000061,0.001561553,485.6000061,0.01221082,485.6000061,0.025751822
484.7999878,0.002972149,484.7999878,0.012564185,484.7999878,0.027492201
484,0.002366564,484,0.01356175,484,0.027915642
483.1999817,-0.000233377,483.1999817,0.010963887,483.1999817,0.027039116
482.3999939,0.000210685,482.3999939,0.012143173,482.3999939,0.02786877
481.6000061,0.000713356,481.6000061,0.012708896,481.6000061,0.028904898
480.7999878,0.000761404,480.7999878,0.01217392,480.7999878,0.027526923
480,0.001640667,480,0.013556141,480,0.028760774
479.1999817,0.001373764,479.1999817,0.012998302,479.1999817,0.030940313
478.3999939,0.000789592,478.3999939,0.013865943,478.3999939,0.030181162
477.6000061,-0.000376788,477.6000061,0.013696855,477.6000061,0.029305764
476.7999878,-0.00127121,476.7999878,0.013208932,476.7999878,0.029097782
476,0.000751809,476,0.013843333,476,0.03041476
475.1999817,0.001883451,475.1999817,0.014290021,475.1999817,0.031510144
474.3999939,0.000411134,474.3999939,0.012723236,474.3999939,0.03022534
473.6000061,0.000200041,473.6000061,0.012531999,473.6000061,0.030760195
472.7999878,0.002018664,472.7999878,0.014559897,472.7999878,0.031081187
472,0.000974041,472,0.014086165,472,0.030849341
471.1999817,0.001114344,471.1999817,0.014704766,471.1999817,0.031353023
470.3999939,0.00132126,470.3999939,0.014753637,470.3999939,0.031020267
469.6000061,-0.000290602,469.6000061,0.013431518,469.6000061,0.03121095
468.7999878,0.000612868,468.7999878,0.015657883,468.7999878,0.03319902
468,5.20E-06,468,0.015670175,468,0.034127474
467.1999817,0.000367089,467.1999817,0.015391212,467.1999817,0.033755094
466.3999939,0.00102435,466.3999939,0.015765537,466.3999939,0.034673832
465.6000061,0.001229614,465.6000061,0.016111465,465.6000061,0.034193259
464.7999878,0.000483301,464.7999878,0.016637975,464.7999878,0.035580333
464,-0.000448062,464,0.016560465,464,0.035122972
463.1999817,0.000495688,463.1999817,0.016686877,463.1999817,0.035033703
462.3999939,-0.000468749,462.3999939,0.016095722,462.3999939,0.035663981
461.6000061,0.000685172,461.6000061,0.017732147,461.6000061,0.035311732
460.7999878,-0.000224529,460.7999878,0.017596105,460.7999878,0.035359919
460,0.000316753,460,0.017306043,460,0.036565568
459.1999817,0.000686572,459.1999817,0.017082917,459.1999817,0.036649209
458.3999939,0.001016903,458.3999939,0.015874425,458.3999939,0.036601108
457.6000061,0.001426534,457.6000061,0.016685558,457.6000061,0.035483494
456.7999878,0.001515105,456.7999878,0.018617656,456.7999878,0.038143862
456,0.00216188,456,0.018890668,456,0.038608063
455.1999817,0.001543706,455.1999817,0.01794916,455.1999817,0.039203212
454.3999939,0.001362676,454.3999939,0.018827785,454.3999939,0.040119562
453.6000061,-0.00011378,453.6000061,0.017741827,453.6000061,0.039628588
452.7999878,0.000223117,452.7999878,0.018485818,452.7999878,0.040480394
452,-2.02E-05,452,0.019994576,452,0.042073008
451.1999817,0.000566236,451.1999817,0.020026915,451.1999817,0.040587787
450.3999939,0.002596811,450.3999939,0.019975277,450.3999939,0.040981408
449.6000061,0.001761016,449.6000061,0.021338815,449.6000061,0.043462314
448.7999878,0.000728291,448.7999878,0.021465346,448.7999878,0.043224026
448,0.001314639,448,0.022842582,448,0.042922597
447.1999817,0.002110633,447.1999817,0.023050508,447.1999817,0.043787308
446.3999939,0.001872688,446.3999939,0.023409175,446.3999939,0.044768263
445.6000061,0.001895957,445.6000061,0.021336639,445.6000061,0.045372404
444.7999878,0.001368181,444.7999878,0.02208614,444.7999878,0.043696184
444,0.001907162,444,0.022204444,444,0.044383321
443.1999817,0.002540566,443.1999817,0.023772158,443.1999817,0.045166843
442.3999939,0.003273602,442.3999939,0.024039784,442.3999939,0.047279123
441.6000061,0.00147009,441.6000061,0.023953147,441.6000061,0.045837067
440.7999878,0.001408433,440.7999878,0.023978697,440.7999878,0.046759292
440,0.00027813,440,0.024308344,440,0.047330733
439.1999817,0.000554676,439.1999817,0.024986159,439.1999817,0.04781764
438.3999939,0.001850382,438.3999939,0.025102569,438.3999939,0.046955314
437.6000061,0.002408157,437.6000061,0.023526309,437.6000061,0.048239682
436.7999878,0.002607462,436.7999878,0.025177147,436.7999878,0.050197795
436,0.002276596,436,0.025295911,436,0.049798723
435.1999817,0.00232565,435.1999817,0.025984203,435.1999817,0.050741632
434.3999939,0.001890861,434.3999939,0.025597841,434.3999939,0.049747314
433.6000061,0.001717847,433.6000061,0.027404182,433.6000061,0.050403368
432.7999878,0.003082647,432.7999878,0.02711626,432.7999878,0.051937506
432,0.002497137,432,0.027602194,432,0.052241463
431.1999817,0.001917433,431.1999817,0.027574362,431.1999817,0.052060027
430.3999939,0.00380041,430.3999939,0.029700262,430.3999939,0.0537428
429.6000061,0.004953072,429.6000061,0.030750442,429.6000061,0.054560162
428.7999878,0.002971367,428.7999878,0.030133326,428.7999878,0.055847473
428,0.003262935,428,0.029050674,428,0.055873085
427.1999817,0.00410581,427.1999817,0.029277461,427.1999817,0.055310763
426.3999939,0.00225963,426.3999939,0.028813329,426.3999939,0.055869199
425.6000061,0.003757142,425.6000061,0.031099094,425.6000061,0.057059366
424.7999878,0.004621331,424.7999878,0.032106701,424.7999878,0.0583659
424,0.003984235,424,0.030162655,424,0.059010059
423.1999817,0.004501862,423.1999817,0.032189853,423.1999817,0.059884232
422.3999939,0.004374737,422.3999939,0.033114392,422.3999939,0.060481638
421.6000061,0.004522525,421.6000061,0.032425176,421.6000061,0.060553856
420.7999878,0.00356091,420.7999878,0.032468829,420.7999878,0.060910277
420,0.006369071,420,0.035643414,420,0.062802069
419.1999817,0.005153785,419.1999817,0.034186453,419.1999817,0.062628426
418.3999939,0.006231656,418.3999939,0.034243643,418.3999939,0.06364195
417.6000061,0.006426156,417.6000061,0.036173336,417.6000061,0.065255754
416.7999878,0.006203034,416.7999878,0.035604637,416.7999878,0.065281808
416,0.005089795,416,0.036277194,416,0.065763399
415.1999817,0.005081361,415.1999817,0.036989722,415.1999817,0.066575423
414.3999939,0.006368361,414.3999939,0.03904042,414.3999939,0.068393797
413.6000061,0.005693396,413.6000061,0.038990777,413.6000061,0.06823308
412.7999878,0.005523003,412.7999878,0.039843488,412.7999878,0.070839942
412,0.005304956,412,0.040833052,412,0.071241505
411.1999817,0.004750228,411.1999817,0.040447492,411.1999817,0.071691312
410.3999939,0.005417412,410.3999939,0.039944451,410.3999939,0.073423609
409.6000061,0.005507246,409.6000061,0.04146862,409.6000061,0.072937861
408.7999878,0.006865091,408.7999878,0.042749953,408.7999878,0.074003786
408,0.007085054,408,0.043464433,408,0.075454153
407.1999817,0.004409673,407.1999817,0.042831879,407.1999817,0.076447316
406.3999939,0.006399964,406.3999939,0.043433592,406.3999939,0.077156037
405.6000061,0.007035775,405.6000061,0.044393413,405.6000061,0.076909594
404.7999878,0.006578349,404.7999878,0.044521108,404.7999878,0.078847677
404,0.006133665,404,0.04599759,404,0.079094782
403.1999817,0.00548845,403.1999817,0.044808295,403.1999817,0.079105809
402.3999939,0.004383314,402.3999939,0.046255171,402.3999939,0.080103509
401.6000061,0.005989579,401.6000061,0.047107365,401.6000061,0.081459619
400.7999878,0.006121588,400.7999878,0.046044126,400.7999878,0.082472786
400,0.005623085,400,0.046487726,400,0.083949909
399.1999817,0.005791026,399.1999817,0.049038313,399.1999817,0.084411576
398.3999939,0.006999312,398.3999939,0.050004922,398.3999939,0.086317934
397.6000061,0.005750969,397.6000061,0.04936507,397.6000061,0.085607797
396.7999878,0.006014829,396.7999878,0.050300758,396.7999878,0.084857769
396,0.004873248,396,0.051069472,396,0.088418797
395.1999817,0.006763644,395.1999817,0.053606156,395.1999817,0.091444835
394.3999939,0.006114972,394.3999939,0.053103652,394.3999939,0.088887371
393.6000061,0.005529845,393.6000061,0.052313581,393.6000061,0.089280993
392.7999878,0.004803646,392.7999878,0.05271047,392.7999878,0.091831319
392,0.004305529,392,0.052948728,392,0.093082853
391.1999817,0.004373979,391.1999817,0.05251826,391.1999817,0.094997108
390.3999939,0.006175647,390.3999939,0.05515543,390.3999939,0.09617915
389.6000061,0.006337813,389.6000061,0.055348486,389.6000061,0.096308991
388.7999878,0.0036808,388.7999878,0.056998175,388.7999878,0.096854255
388,0.005772243,388,0.05783169,388,0.099177346
387.1999817,0.005916309,387.1999817,0.056995489,387.1999817,0.098513655
386.3999939,0.005693606,386.3999939,0.059631206,386.3999939,0.100539461
385.6000061,0.00559369,385.6000061,0.061198588,385.6000061,0.10237889
384.7999878,0.004116184,384.7999878,0.060081691,384.7999878,0.103692889
384,0.004135732,384,0.061422408,384,0.105188862
383.1999817,0.00552434,383.1999817,0.061058685,383.1999817,0.106721915
382.3999939,0.006280161,382.3999939,0.064174175,382.3999939,0.109303914
381.6000061,0.00481265,381.6000061,0.063047931,381.6000061,0.107741006
380.7999878,0.004413229,380.7999878,0.063385859,380.7999878,0.11236304
380,0.005966537,380,0.06469471,380,0.11244835
379.1999817,0.006331246,379.1999817,0.067916632,379.1999817,0.114897542
378.3999939,0.005897547,378.3999939,0.066990756,378.3999939,0.11540781
377.6000061,0.003480324,377.6000061,0.06960322,377.6000061,0.116853111
376.7999878,0.004598779,376.7999878,0.069418631,376.7999878,0.11737074
376,0.005474634,376,0.070937552,376,0.119577572
375.1999817,0.005956958,375.1999817,0.070349157,375.1999817,0.120951466
374.3999939,0.006508395,374.3999939,0.072247013,374.3999939,0.125883877
373.6000061,0.004213826,373.6000061,0.071753971,373.6000061,0.121366158
372.7999878,0.004638965,372.7999878,0.073413096,372.7999878,0.123662643
372,0.003590612,372,0.072937675,372,0.125221983
371.1999817,0.003984523,371.1999817,0.07404007,371.1999817,0.127510846
370.3999939,0.00514624,370.3999939,0.076259673,370.3999939,0.128765822
369.6000061,0.003965583,369.6000061,0.077022895,369.6000061,0.129795104
368.7999878,0.002183291,368.7999878,0.076175638,368.7999878,0.133089379
368,0.004288614,368,0.07921847,368,0.133518294
367.1999817,0.004740781,367.1999817,0.084284797,367.1999817,0.140783668
366.3999939,0.004460302,366.3999939,0.08081165,366.3999939,0.138098821
365.6000061,0.005061404,365.6000061,0.082609028,365.6000061,0.137441039
364.7999878,0.00581301,364.7999878,0.081996202,364.7999878,0.141044349
364,0.007003258,364,0.085766055,364,0.143737927
363.1999817,0.000695414,363.1999817,0.082732461,363.1999817,0.142297119
362.3999939,0.004706761,362.3999939,0.084633969,362.3999939,0.143441379
361.6000061,0.003050347,361.6000061,0.085266851,361.6000061,0.143967614
360.7999878,0.002530229,360.7999878,0.087596729,360.7999878,0.145129159
360,-0.000321954,360,0.084513165,360,0.150143847
359.1999817,-0.000571548,359.1999817,0.088010773,359.1999817,0.15037401
358.3999939,0.003086584,358.3999939,0.088872187,358.3999939,0.151095972
357.6000061,0.003987501,357.6000061,0.091021672,357.6000061,0.15699099
356.7999878,0.003471165,356.7999878,0.092650622,356.7999878,0.155278996
356,-0.001096852,356,0.088563643,356,0.154865429
355.1999817,0.004928068,355.1999817,0.092966214,355.1999817,0.158953175
354.3999939,0.001499649,354.3999939,0.090600856,354.3999939,0.157346323
353.6000061,0.008137139,353.6000061,0.093355663,353.6000061,0.163093358
352.7999878,0.004214819,352.7999878,0.089210637,352.7999878,0.159591436
352,0.004696818,352,0.105238833,352,0.166395694
351.1999817,0.004505759,351.1999817,0.100718632,351.1999817,0.170328021
350.3999939,0.000912117,350.3999939,0.093151204,350.3999939,0.16189158
349.6000061,-0.004051918,349.6000061,0.108245879,349.6000061,0.172888666
348.7999878,-0.001124324,348.7999878,0.099787258,348.7999878,0.16861473
348,0.000197192,348,0.101416007,348,0.17355217
347.1999817,0.004177495,347.1999817,0.103216678,347.1999817,0.172579497
346.3999939,-0.00226542,346.3999939,0.104261562,346.3999939,0.175033554
345.6000061,0.001207471,345.6000061,0.105544075,345.6000061,0.178335726
344.7999878,0.002870278,344.7999878,0.108608656,344.7999878,0.184694618
344,-0.003646683,344,0.110156015,344,0.183228999
343.1999817,0.000251659,343.1999817,0.111277208,343.1999817,0.18556124
342.3999939,0.004749731,342.3999939,0.112635016,342.3999939,0.18733938
341.6000061,0.00223975,341.6000061,0.113780029,341.6000061,0.193282872
340.7999878,-0.004096539,340.7999878,0.112538435,340.7999878,0.191860288
340,0.003142561,340,0.114893764,340,0.198017359
339.1999817,-0.000365925,339.1999817,0.11694032,339.1999817,0.193038985
338.3999939,0.000541665,338.3999939,0.119239651,338.3999939,0.196865171
337.6000061,-0.000133913,337.6000061,0.121847592,337.6000061,0.196510956
336.7999878,0.003863896,336.7999878,0.125590682,336.7999878,0.208170727
336,-0.000561569,336,0.118217178,336,0.204449207
335.1999817,0.002113261,335.1999817,0.127170548,335.1999817,0.208507821
334.3999939,0.00144952,334.3999939,0.125904456,334.3999939,0.210730031
333.6000061,0.005377023,333.6000061,0.132602707,333.6000061,0.210016936
332.7999878,0.003033038,332.7999878,0.132676512,332.7999878,0.218164995
332,0.002163727,332,0.133194849,332,0.214014083
331.1999817,0.000654632,331.1999817,0.136084214,331.1999817,0.220641881
330.3999939,0.002552647,330.3999939,0.13440977,330.3999939,0.220342711
329.6000061,0.001702436,329.6000061,0.13603875,329.6000061,0.224077523
328.7999878,-0.000506138,328.7999878,0.13538447,328.7999878,0.228941754
328,0.003153251,328,0.141546309,328,0.230630904
327.1999817,0.003627547,327.1999817,0.140227988,327.1999817,0.22924459
326.3999939,0.002626759,326.3999939,0.140384466,326.3999939,0.233626172
325.6000061,0.002058508,325.6000061,0.140318841,325.6000061,0.237512201
324.7999878,0.003519571,324.7999878,0.148686141,324.7999878,0.238836601
324,0.003218547,324,0.146593422,324,0.2367796
323.1999817,-0.000374512,323.1999817,0.146792099,323.1999817,0.244051948
322.3999939,-7.23E-05,322.3999939,0.145966709,322.3999939,0.241739348
321.6000061,0.00306505,321.6000061,0.15002729,321.6000061,0.246563584
320.7999878,0.003070603,320.7999878,0.152588531,320.7999878,0.253951997
320,0.005543138,320,0.160307214,320,0.255478799
319.1999817,0.002721332,319.1999817,0.159663737,319.1999817,0.255513161
318.3999939,0.00447895,318.3999939,0.161402986,318.3999939,0.260736734
317.6000061,0.004200548,317.6000061,0.163347989,317.6000061,0.26603502
316.7999878,0.001638303,316.7999878,0.160162598,316.7999878,0.260863483
316,0.001350705,316,0.162129715,316,0.26760456
315.1999817,0.000334291,315.1999817,0.168148175,315.1999817,0.270970553
314.3999939,0.001522768,314.3999939,0.167235807,314.3999939,0.270991862
313.6000061,0.003800749,313.6000061,0.170052618,313.6000061,0.273705006
312.7999878,0.001609046,312.7999878,0.168507919,312.7999878,0.277539223
312,0.002814883,312,0.173460379,312,0.280850738
311.1999817,0.003592361,311.1999817,0.177272871,311.1999817,0.285287619
310.3999939,0.00357978,310.3999939,0.177506462,310.3999939,0.287943035
309.6000061,0.004261897,309.6000061,0.178801164,309.6000061,0.28881529
308.7999878,0.001392254,308.7999878,0.183197141,308.7999878,0.29226926
308,0.000475319,308,0.183147535,308,0.292179883
307.1999817,0.002095365,307.1999817,0.182588831,307.1999817,0.298033744
306.3999939,-2.86E-05,306.3999939,0.186953947,306.3999939,0.301032573
305.6000061,0.00364655,305.6000061,0.190014049,305.6000061,0.299138337
304.7999878,0.001755064,304.7999878,0.190527678,304.7999878,0.307091296
304,0.004433235,304,0.193443075,304,0.307150126
303.1999817,0.001628767,303.1999817,0.19298844,303.1999817,0.312425554
302.3999939,0.005348274,302.3999939,0.198707849,302.3999939,0.31761995
301.6000061,0.002687678,301.6000061,0.203004092,301.6000061,0.31949544
300.7999878,0.000350948,300.7999878,0.202887774,300.7999878,0.32065478
300,0.00503299,300,0.203727156,300,0.329257727
299.1999817,0.004465402,299.1999817,0.206968397,299.1999817,0.329429716
298.3999939,0.00328174,298.3999939,0.204517856,298.3999939,0.330598623
297.6000061,0.002086547,297.6000061,0.209897563,297.6000061,0.335900396
296.7999878,0.002425806,296.7999878,0.211107239,296.7999878,0.337879092
296,0.003636839,296,0.21464996,296,0.34292376
295.1999817,0.003687274,295.1999817,0.217458174,295.1999817,0.344570249
294.3999939,0.003719204,294.3999939,0.217490718,294.3999939,0.349531651
293.6000061,0.003928802,293.6000061,0.220997319,293.6000061,0.349148959
292.7999878,0.005688229,292.7999878,0.224222824,292.7999878,0.356086403
292,0.004305111,292,0.224722326,292,0.358548701
291.1999817,0.004384805,291.1999817,0.230269879,291.1999817,0.36750558
290.3999939,0.005023562,290.3999939,0.22953862,290.3999939,0.369169951
289.6000061,0.005455472,289.6000061,0.232029215,289.6000061,0.371059507
288.7999878,0.004046808,288.7999878,0.234317854,288.7999878,0.374848634
288,0.005661085,288,0.236924708,288,0.376805931
287.1999817,0.002425754,287.1999817,0.239120364,287.1999817,0.378437579
286.3999939,0.005047263,286.3999939,0.238630995,286.3999939,0.383621663
285.5999756,0.004677376,285.5999756,0.245067835,285.5999756,0.385769099
284.7999878,0.006803242,284.7999878,0.25123167,284.7999878,0.394277841
284,0.004787576,284,0.251275182,284,0.394154698
283.1999817,0.004682347,283.1999817,0.253743619,283.1999817,0.398447901
282.3999939,0.005457569,282.3999939,0.255633831,282.3999939,0.405195683
281.5999756,0.006018188,281.5999756,0.256118536,281.5999756,0.404004186
280.7999878,0.003328638,280.7999878,0.258703977,280.7999878,0.409505367
280,0.005109439,280,0.263695777,280,0.409807354
279.1999817,0.00703317,279.1999817,0.264399707,279.1999817,0.414026469
278.3999939,0.006354702,278.3999939,0.2682814,278.3999939,0.42023015
277.5999756,0.006141331,277.5999756,0.268421471,277.5999756,0.421690285
276.7999878,0.005504834,276.7999878,0.27103585,276.7999878,0.424078345
276,0.006325441,276,0.276444465,276,0.431164086
275.1999817,0.006945493,275.1999817,0.278662205,275.1999817,0.437093467
274.3999939,0.007522839,274.3999939,0.278371781,274.3999939,0.437836111
273.5999756,0.00609439,273.5999756,0.284264177,273.5999756,0.440920413
272.7999878,0.008132075,272.7999878,0.284485549,272.7999878,0.443132579
272,0.005864118,272,0.288114369,272,0.446872473
271.1999817,0.005761907,271.1999817,0.287628323,271.1999817,0.452192873
270.3999939,0.008789025,270.3999939,0.293600529,270.3999939,0.457090825
269.5999756,0.007460711,269.5999756,0.295202673,269.5999756,0.458030194
268.7999878,0.005884033,268.7999878,0.296060413,268.7999878,0.46066165
268,0.005644667,268,0.29953894,268,0.464883089
267.1999817,0.009289379,267.1999817,0.303366274,267.1999817,0.47175321
266.3999939,0.008092277,266.3999939,0.303334057,266.3999939,0.471886188
265.5999756,0.006877452,265.5999756,0.305387259,265.5999756,0.473443151
264.7999878,0.008409631,264.7999878,0.309463322,264.7999878,0.480922401
264,0.007774152,264,0.310246378,264,0.481202871
263.1999817,0.007400436,263.1999817,0.314442426,263.1999817,0.484457433
262.3999939,0.007409757,262.3999939,0.3158786,262.3999939,0.490146697
261.5999756,0.006518406,261.5999756,0.315892875,261.5999756,0.491398931
260.7999878,0.006715794,260.7999878,0.31524533,260.7999878,0.497439951
260,0.008893272,260,0.319719613,260,0.497251123
259.1999817,0.010265445,259.1999817,0.321224392,259.1999817,0.502048016
258.3999939,0.007249297,258.3999939,0.319757551,258.3999939,0.507582426
257.5999756,0.007093606,257.5999756,0.32395497,257.5999756,0.509972036
256.7999878,0.007000812,256.7999878,0.32810238,256.7999878,0.514504254
255.9999847,0.006912562,255.9999847,0.327581018,255.9999847,0.51468122
255.1999969,0.007738603,255.1999969,0.329781145,255.1999969,0.518360555
254.3999939,0.008923182,254.3999939,0.329078704,254.3999939,0.521380723
253.5999908,0.008709681,253.5999908,0.331949979,253.5999908,0.526756346
252.7999878,0.007620749,252.7999878,0.333077818,252.7999878,0.528668106
251.9999847,0.007589427,251.9999847,0.336358786,251.9999847,0.532642543
251.1999969,0.006689716,251.1999969,0.335800082,251.1999969,0.53790772
250.3999939,0.005860392,250.3999939,0.338949055,250.3999939,0.539635718
249.5999908,0.006233495,249.5999908,0.341261923,249.5999908,0.543398559
248.7999878,0.007022779,248.7999878,0.343611479,248.7999878,0.544638753
247.9999847,0.005744962,247.9999847,0.344997972,247.9999847,0.550646544
247.1999969,0.006582712,247.1999969,0.346378326,247.1999969,0.553086817
246.3999939,0.008274524,246.3999939,0.351659626,246.3999939,0.559603632
245.5999908,0.00611513,245.5999908,0.353389323,245.5999908,0.565170407
244.7999878,0.006008346,244.7999878,0.353605926,244.7999878,0.571724176
243.9999847,0.00650264,243.9999847,0.358406097,243.9999847,0.576770783
243.1999969,0.007951389,243.1999969,0.362232357,243.1999969,0.58283335
242.3999939,0.004475968,242.3999939,0.364567608,242.3999939,0.584481657
241.5999908,0.005557244,241.5999908,0.366811514,241.5999908,0.590785682
240.7999878,0.007900219,240.7999878,0.373699337,240.7999878,0.598585546
239.9999847,0.004461662,239.9999847,0.374671549,239.9999847,0.606531203
239.1999969,0.004771375,239.1999969,0.375761926,239.1999969,0.609446287
238.3999939,0.003647646,238.3999939,0.382739842,238.3999939,0.616499424
237.5999908,0.003132601,237.5999908,0.38442713,237.5999908,0.627414703
236.7999878,0.002253827,236.7999878,0.388170064,236.7999878,0.632495821
235.9999847,0.004097918,235.9999847,0.393715084,235.9999847,0.63870132
235.1999969,0.003748865,235.1999969,0.397641957,235.1999969,0.648239672
234.3999939,0.003610084,234.3999939,0.401753217,234.3999939,0.655812562
233.5999908,0.00456341,233.5999908,0.405923873,233.5999908,0.664858103
232.7999878,0.002985572,232.7999878,0.408841193,232.7999878,0.671330094
231.9999847,0.003801715,231.9999847,0.414588541,231.9999847,0.680465341
231.1999969,0.00408203,231.1999969,0.416985631,231.1999969,0.686762273
230.3999939,0.002802507,230.3999939,0.424879968,230.3999939,0.701146841
229.5999908,0.00147461,229.5999908,0.424498856,229.5999908,0.706807554
228.7999878,0.004629886,228.7999878,0.433061451,228.7999878,0.717671096
227.9999847,0.003508063,227.9999847,0.435122371,227.9999847,0.730989575
227.1999969,0.004306732,227.1999969,0.440596998,227.1999969,0.744416058
226.3999939,0.005278386,226.3999939,0.444230318,226.3999939,0.754755557
225.5999908,0.004688104,225.5999908,0.449353278,225.5999908,0.768846512
224.7999878,0.005620253,224.7999878,0.453786045,224.7999878,0.783578038
223.9999847,0.003623292,223.9999847,0.456665129,223.9999847,0.793382824
223.1999969,0.001512767,223.1999969,0.461221248,223.1999969,0.803646267
222.3999939,0.004559146,222.3999939,0.465458363,222.3999939,0.824801385
221.5999908,0.003023002,221.5999908,0.471754968,221.5999908,0.839764237
220.7999878,0.001895359,220.7999878,0.473918498,220.7999878,0.853702962
219.9999847,0.003627103,219.9999847,0.482106775,219.9999847,0.871739924
219.1999969,0.001999186,219.1999969,0.484000087,219.1999969,0.888643861
218.3999939,0.003011898,218.3999939,0.487939268,218.3999939,0.905295372
217.5999908,0.002853132,217.5999908,0.491171897,217.5999908,0.926883757
216.7999878,0.002389702,216.7999878,0.494924188,216.7999878,0.942231238
215.9999847,0.002534291,215.9999847,0.503203094,215.9999847,0.965779007
215.1999969,0.001656648,215.1999969,0.507849872,215.1999969,0.979348183
214.3999939,0.002839765,214.3999939,0.509159088,214.3999939,1.000612617
213.5999908,0.002920103,213.5999908,0.517399132,213.5999908,1.017332911
212.7999878,0.002323803,212.7999878,0.522815168,212.7999878,1.034981608
211.9999847,0.003035853,211.9999847,0.529101372,211.9999847,1.055187345
211.1999969,0.002725682,211.1999969,0.532393754,211.1999969,1.077166915
210.3999939,0.002348162,210.3999939,0.533835053,210.3999939,1.088180542
209.5999908,0.004085166,209.5999908,0.543406546,209.5999908,1.105562329
208.7999878,0.002590197,208.7999878,0.545913279,208.7999878,1.12376368
207.9999847,0.001231275,207.9999847,0.547800958,207.9999847,1.131875753
207.1999969,0.001037479,207.1999969,0.556611598,207.1999969,1.147424459
206.3999939,0.002566839,206.3999939,0.557275176,206.3999939,1.165765047
205.5999908,0.003238419,205.5999908,0.561179757,205.5999908,1.17478931
204.7999878,0.001856596,204.7999878,0.561634243,204.7999878,1.183368206
203.9999847,0.002823689,203.9999847,0.566348016,203.9999847,1.203316212
203.1999969,0.002324193,203.1999969,0.569579244,203.1999969,1.200906992
202.3999939,0.004038813,202.3999939,0.572610259,202.3999939,1.205402017
201.5999908,0.004389694,201.5999908,0.570830643,201.5999908,1.214281321
200.7999878,0.001337774,200.7999878,0.564568639,200.7999878,1.222622156
199.9999847,0.0029685,199.9999847,0.574727297,199.9999847,1.218628168
,,,,,
,,,,,
,,,,,
,,,,,
,,,,,
,,,,,
,,,,,
,,,,,
,,,,,
,,,,,
,,,,,
,,,,,
,,,,,
,,,,,
,,,,,
,,,,,
,,,,,
,,,,,
,,,,,
,,,,,
,,,,,
,,,,,
,,,,,
,,,,,
,,,,,
,,,,,
,,,,,
,,,,,
,,,,,
,,,,,
,,,,,
,,,,,
,,,,,
,,,,,
,,,,,
,,,,,
 New: 900.00,,,,,
 New:    0.800,,,,,
 New:1.0,,,,,
 New:1.0,,,,,
 New:1,,,,,
 New:1,,,,,
 New:1,,,,,
 New:    10.00,,,,,
 New:0,,,,,
 New:1,,,,,
 New:30,,,,,
 New:ON,,,,,
 New:ON,,,,,
,,,,,
,,,,,
 New:JKK,,,,,
 New:3,,,,,
,,,,,
,,,,,
,,,,,
,,,,,
,,,,,
,,,,,
,,,,,
,,,,,
,,,,,
,,,,,
,,,,,
,,,,,
,,,,,
,,,,,
,,,,,
,,,,,
,,,,,
,,,,,
,,,,,
,,,,,
,,,,,
,,,,,
,,,,,
,,,,,
,,,,,
,,,,,
,,,,,
,,,,,
,,,,,
,,,,,
,,,,,
,,,,,
,,,,,
,,,,,
,,,,,
,,,,,
,,,,,
,,,,,
,,,,,
,,,,,
 New: 900.00,,,,,
 New:    0.800,,,,,
 New:1.0,,,,,
 New:1.0,,,,,
 New:1,,,,,
 New:1,,,,,
 New:1,,,,,
 New:    10.00,,,,,
 New:0,,,,,
 New:1,,,,,
 New:30,,,,,
 New:ON,,,,,
 New:ON,,,,,
,,,,,
,,,,,
 New:JKK,,,,,
 New:3,,,,,
,,,,,
,,,,,
,,,,,
,,,,,
,,,,,
,,,,,
,,,,,
,,,,,
,,,,,
,,,,,
,,,,,
,,,,,
,,,,,
,,,,,
,,,,,
,,,,,
,,,,,
,,,,,
,,,,,
,,,,,
,,,,,
,,,,,
,,,,,
,,,,,
,,,,,
,,,,,
,,,,,
,,,,,
,,,,,
,,,,,
,,,,,
,,,,,
,,,,,
,,,,,
,,,,,
,,,,,
,,,,,
,,,,,
,,,,,
,,,,,
 New: 900.00,,,,,
 New:    0.800,,,,,
 New:1.0,,,,,
 New:1.0,,,,,
 New:1,,,,,
 New:1,,,,,
 New:1,,,,,
 New:    10.00,,,,,
 New:0,,,,,
 New:1,,,,,
 New:30,,,,,
 New:ON,,,,,
 New:ON,,,,,
,,,,,
,,,,,
 New:JKK,,,,,
 New:3,,,,,
,,,,,
,,,,,
,,,,,
,,,,,
,,,,,
,,,,,
,,,,,
,,,,,
,,,,,
,,,,,
,,,,,
,,,,,
,,,,,
,,,,,
,,,,,
,,,,,
,,,,,
,,,,,
,,,,,
,,,,,
,,,,,
,,,,,
,,,,,
,,,,,
,,,,,
,,,,,
,,,,,
,,,,,
,,,,,
,,,,,
,,,,,
,,,,,
,,,,,
,,,,,
,,,,,
,,,,,
,,,,,
,,,,,
,,,,,
,,,,,
 New: 900.00,,,,,
 New:    0.800,,,,,
 New:1.0,,,,,
 New:1.0,,,,,
 New:1,,,,,
 New:1,,,,,
 New:1,,,,,
 New:    10.00,,,,,
 New:0,,,,,
 New:1,,,,,
 New:30,,,,,
 New:ON,,,,,
 New:ON,,,,,
,,,,,
,,,,,
 New:JKK,,,,,
 New:3,,,,,
